x, y, theta, stamp, 
-1.999942079925257, -0.5000009938607085, 5.281498573099507e-07, 9384000000, 
-1.999942070022563, -0.5000009938060234, 5.290350868838546e-07, 9418000000, 
-1.9935749316405738, -0.5000099789150324, -0.004517564229461978, 9452000000, 
-1.9862300872659564, -0.5000894159335029, -0.018620719570905213, 9486000000, 
-1.9795541005799582, -0.5002619032873963, -0.032627644730832066, 9520000000, 
-1.9728872275291995, -0.5005142229479719, -0.04305319931047692, 9554000000, 
-1.9673745501243707, -0.5007819905644709, -0.054648040295312554, 9588000000, 
-1.9624027559501074, -0.5010829779327038, -0.0659808587397799, 9622000000, 
-1.952611618452402, -0.5017948235166287, -0.0785960193435319, 9690000000, 
-1.9379501886482193, -0.5030693043561026, -0.0960802226771314, 9792000000, 
-1.9227920617267629, -0.5046720976438898, -0.1149721028543536, 9894000000, 
-1.9070825464236258, -0.506629090040439, -0.13131253791531391, 9996000000, 
-1.890134734617313, -0.5090340003039778, -0.15177819768954903, 10098000000, 
-1.8721224814161683, -0.5119931241736673, -0.17574150475344907, 10200000000, 
-1.8536272697868874, -0.5155144228438951, -0.20050912234394622, 10302000000, 
-1.8355769638712598, -0.5194104501908492, -0.22502845566572977, 10404000000, 
-1.8184041351484797, -0.5235495169926997, -0.24828074257631444, 10506000000, 
-1.8018610071199794, -0.52793245015489, -0.26995351358157404, 10608000000, 
-1.7867138717479116, -0.5322582195594233, -0.2867475801744444, 10710000000, 
-1.7770163502415042, -0.5351698374082406, -0.2971096663840733, 10778000000, 
-1.7628413717493858, -0.5396131293146983, -0.31093795624744947, 10880000000, 
-1.7488903794841615, -0.5441897249552113, -0.3235395553893909, 10982000000, 
-1.7350694135709965, -0.5489130216668517, -0.33562042236012907, 11084000000, 
-1.7214257971661335, -0.55376794648024, -0.3484891290871441, 11186000000, 
-1.708217773488051, -0.5586669737416665, -0.3619874400194754, 11288000000, 
-1.6948749078367025, -0.5638210038663769, -0.37551019409542286, 11390000000, 
-1.6816679782481005, -0.5691275210833777, -0.38884984077540996, 11492000000, 
-1.6688202311680729, -0.574486560919444, -0.4014864323444633, 11594000000, 
-1.6562787308127942, -0.5798972631825533, -0.4129215111452315, 11696000000, 
-1.644061750051794, -0.5853247782056618, -0.4231441726861232, 11798000000, 
-1.632232623130102, -0.5907176447675919, -0.4323589395093541, 11900000000, 
-1.6207243486862126, -0.5960875118176586, -0.4408128244906766, 12002000000, 
-1.6094590634059673, -0.6014568802756899, -0.44885792382988066, 12104000000, 
-1.5984182465274874, -0.6068276847453582, -0.45678535445674356, 12206000000, 
-1.5911706037246327, -0.6104128179696898, -0.46204525901544824, 12274000000, 
-1.5804529918177694, -0.6158027771782109, -0.4699600695012252, 12376000000, 
-1.569921020056407, -0.6212036046450379, -0.4777615138925905, 12478000000, 
-1.5595961296046155, -0.6265986537177612, -0.48529426113436536, 12580000000, 
-1.5497956885198716, -0.6318101322767539, -0.49218430357671633, 12682000000, 
-1.540340908916163, -0.6369199916136328, -0.498628665051466, 12784000000, 
-1.5308224232325394, -0.642141201066965, -0.504618206579782, 12886000000, 
-1.5213726698969905, -0.6473952620048119, -0.5101589346700444, 12988000000, 
-1.5120637884873696, -0.6526365611210657, -0.5153850758703387, 13090000000, 
-1.5028331750180397, -0.6578961576789644, -0.5204048121242588, 13192000000, 
-1.49376124832925, -0.6631247502822302, -0.52526134310811, 13294000000, 
-1.4849383921781272, -0.6682662613903203, -0.5299990484504628, 13396000000, 
-1.4763486586459418, -0.6733259432588325, -0.5346119405632954, 13498000000, 
-1.4679685472743027, -0.678313536803016, -0.5390550937132381, 13600000000, 
-1.4624934599919963, -0.6815991759112695, -0.5419360257156519, 13668000000, 
-1.4544285143916706, -0.6864771854364452, -0.546010768624952, 13770000000, 
-1.4465031407013342, -0.6913136158635809, -0.5498246464769232, 13872000000, 
-1.438701495315522, -0.6961139912398042, -0.5533776480330059, 13974000000, 
-1.4311201955645618, -0.7008147052540992, -0.5567059436624995, 14076000000, 
-1.4238962485983107, -0.7053261949261518, -0.5597712967833679, 14178000000, 
-1.416591962759397, -0.7099187287805548, -0.5627581386361383, 14280000000, 
-1.4093242240043404, -0.7145180106968928, -0.565652397976202, 14382000000, 
-1.40218748293945, -0.7190628540168965, -0.5684501997501499, 14484000000, 
-1.3951280614128, -0.7235857759946557, -0.5711594828039286, 14586000000, 
-1.3881731190180782, -0.7280678965838067, -0.5737661677195006, 14688000000, 
-1.3813986823100561, -0.7324581316403262, -0.5762416377717282, 14790000000, 
-1.3747929897758209, -0.7367616164265777, -0.5785775203517425, 14892000000, 
-1.3683288167374812, -0.7409937464527581, -0.5807744406159049, 14994000000, 
-1.3620039743047636, -0.745153950189985, -0.5828399445455307, 15096000000, 
-1.3578550791431252, -0.7478929099737568, -0.5841658182537072, 15164000000, 
-1.351716117372257, -0.7519597760825346, -0.5860452022944026, 15266000000, 
-1.345667522287012, -0.7559828120135202, -0.5878391918346372, 15368000000, 
-1.3397137422994123, -0.7599578471091892, -0.5895600302735874, 15470000000, 
-1.3340315092248671, -0.7637653364128008, -0.5911850196811476, 15572000000, 
-1.3285253601997318, -0.7674677076805376, -0.5927509322958501, 15674000000, 
-1.3229619297228141, -0.7712210455752907, -0.5942639900885679, 15776000000, 
-1.3174246231531292, -0.7749686624148432, -0.5957088990990429, 15878000000, 
-1.3119616594169252, -0.7786772214516078, -0.5970834996876242, 15980000000, 
-1.306539261898027, -0.7823688480485773, -0.598386203990458, 16082000000, 
-1.301203900877251, -0.7860111160331426, -0.5996155683453661, 16184000000, 
-1.2960070382461681, -0.7895679396206291, -0.6007787041283055, 16286000000, 
-1.2909375449316116, -0.7930460397772489, -0.6018830325642834, 16388000000, 
-1.2859803976686823, -0.7964549218531113, -0.6029358002024108, 16490000000, 
-1.2811300445401217, -0.7997977375510458, -0.6039432621466972, 16592000000, 
-1.2779454684543075, -0.8019964070542173, -0.6045966294228026, 16660000000, 
-1.273228440885849, -0.8052586238893296, -0.6055336966825374, 16762000000, 
-1.2685762679918033, -0.808482311675201, -0.6064275563185698, 16864000000, 
-1.263991823744372, -0.8116649634979833, -0.6072777775972602, 16966000000, 
-1.2595330462991485, -0.8147658474727951, -0.6080849993325025, 17068000000, 
-1.2552868044210745, -0.8177238732293226, -0.6088310039101782, 17170000000, 
-1.250995047787928, -0.8207183085632814, -0.6095510462880728, 17272000000, 
-1.2467224325201343, -0.823703853169928, -0.6102391527476615, 17374000000, 
-1.2425206088015177, -0.8266441131237134, -0.6108937877321807, 17476000000, 
-1.2383560086362708, -0.8295623055703251, -0.6115202514722193, 17578000000, 
-1.2342436570695017, -0.8324476562758992, -0.6121204753348669, 17680000000, 
-1.2302296379328685, -0.8352675176784635, -0.6126926444801993, 17782000000, 
-1.226309365818776, -0.8380248137359018, -0.6132374623620152, 17884000000, 
-1.2224688681574984, -0.8407290255398505, -0.6137560660118614, 17986000000, 
-1.2187083304243753, -0.8433798035266464, -0.6142486771329122, 18088000000, 
-1.2162403310170256, -0.8451209495759082, -0.614566373438963, 18156000000, 
-1.2125867882830823, -0.8477006106618236, -0.6150174468577878, 18258000000, 
-1.2089848145433888, -0.8502462293611599, -0.6154458750068779, 18360000000, 
-1.2054363840719986, -0.85275624023476, -0.6158530751311913, 18462000000, 
-1.2019854560313896, -0.8551993277987309, -0.6162411627946324, 18564000000, 
-1.1986971776100876, -0.8575291437760488, -0.6166028459634635, 18666000000, 
-1.1953712358829676, -0.8598874325440308, -0.6169539676021338, 18768000000, 
-1.192057889106892, -0.8622384983186117, -0.6172907824820084, 18870000000, 
-1.1887975797736743, -0.8645535497291692, -0.6176116952748667, 18972000000, 
-1.1855651743984037, -0.8668503008722381, -0.6179181503462606, 19074000000, 
-1.1823731701550706, -0.869119785373467, -0.6182101538303367, 19176000000, 
-1.1792573829227315, -0.8713364289594238, -0.6184870350450321, 19278000000, 
-1.1762143061777233, -0.8735025650097682, -0.6187498700751466, 19380000000, 
-1.1732329499196974, -0.8756259170528643, -0.6189996763528544, 19482000000, 
-1.1703131989929372, -0.8777064755134217, -0.6192373010671616, 19584000000, 
-1.1683967052679933, -0.8790726848271424, -0.6193905230030008, 19652000000, 
-1.1655590576530452, -0.8810963619466893, -0.6196094103482132, 19754000000, 
-1.1627606047521328, -0.8830929953729061, -0.619818137446462, 19856000000, 
-1.1600031428033655, -0.8850612249648105, -0.6200169240331264, 19958000000, 
-1.157368276989881, -0.8869427080503987, -0.6202023709326172, 20060000000, 
-1.1548121841863912, -0.8887686523637706, -0.6203799575530958, 20162000000, 
-1.1522265991039418, -0.8906163408639028, -0.6205507929382974, 20264000000, 
-1.1496506236677781, -0.8924578188578322, -0.6207135862626898, 20366000000, 
-1.1471071133619322, -0.8942766961048599, -0.6208694538915949, 20468000000, 
-1.1454213318519206, -0.8954825328912366, -0.6209704368952166, 20536000000, 
-1.1429164123697773, -0.8972747670135287, -0.6211144174818161, 20638000000, 
-1.1404688777292786, -0.8990264548918582, -0.6212506721609958, 20740000000, 
-1.1380846746447018, -0.9007333044351821, -0.6213805632286258, 20842000000, 
-1.1358250997347068, -0.9023513642796072, -0.6215014011745637, 20944000000, 
-1.1336433765102032, -0.9039140685449011, -0.62161692754533, 21046000000, 
-1.1314371505824123, -0.9054946761289179, -0.6217283014389019, 21148000000, 
-1.129229618378196, -0.9070766055897073, -0.6218346428202098, 21250000000, 
-1.1270378662821579, -0.9086475699578547, -0.621936472512336, 21352000000, 
-1.1248516339986896, -0.9102149084871272, -0.6220335348461342, 21454000000, 
-1.122693958674015, -0.9117620833977222, -0.6221256462844867, 21556000000, 
-1.1205905133790055, -0.9132706566755887, -0.6222132267363171, 21658000000, 
-1.11854107172238, -0.9147407684341732, -0.622296369276254, 21760000000, 
-1.1165408545516116, -0.9161758186732292, -0.6223753798120536, 21862000000, 
-1.1145866774516333, -0.9175780602451357, -0.6224507846714687, 21964000000, 
-1.1126682985527516, -0.9189548288391801, -0.6225227722161708, 22066000000, 
-1.1107760861048586, -0.9203130236836329, -0.6225912751150321, 22168000000, 
-1.1095277726935928, -0.921209149671651, -0.6226355572438832, 22236000000, 
-1.1076753582914636, -0.9225390788186303, -0.6226986270199694, 22338000000, 
-1.1058482317163594, -0.923851029593639, -0.6227585168201824, 22440000000, 
-1.1040494800373044, -0.9251427646353682, -0.6228153762686489, 22542000000, 
-1.1023369302982038, -0.9263727431288746, -0.6228682008316723, 22644000000, 
-1.1006796151659075, -0.9275631707188927, -0.6229189120836122, 22746000000, 
-1.0990049468541454, -0.9287661948482733, -0.622967877346435, 22848000000, 
-1.097336538487176, -0.9299648443265001, -0.6230145459979027, 22950000000, 
-1.095687576448162, -0.9311496358589303, -0.6230594341406357, 23052000000, 
-1.0940470774338629, -0.9323284569360385, -0.6231023121362598, 23154000000, 
-1.0924296655596062, -0.9334907892673332, -0.6231429981437446, 23256000000, 
-1.0908520057542592, -0.9346246523319517, -0.6231815866718463, 23358000000, 
-1.089821348680898, -0.9353654333403243, -0.6232064638526862, 23426000000, 
-1.0883036481633204, -0.936456345557798, -0.6232417467705159, 23528000000, 
-1.0868189610258574, -0.9375236000327025, -0.6232752509647482, 23630000000, 
-1.0853633110859413, -0.9385700646900651, -0.6233072292091474, 23732000000, 
-1.083971250164947, -0.9395708679001088, -0.6233369933122407, 23834000000, 
-1.0826171434714698, -0.9405444525734009, -0.6233656756245475, 23936000000, 
-1.0812423301996668, -0.9415329804365478, -0.6233933292710878, 24038000000, 
-1.0798672441924146, -0.9425217631229978, -0.6234196626993526, 24140000000, 
-1.078506428852036, -0.9435003376568912, -0.6234448493976957, 24242000000, 
-1.0771547109363506, -0.944472419130591, -0.6234688611617806, 24344000000, 
-1.075825386330328, -0.9454284438665868, -0.6234916178538714, 24446000000, 
-1.0745319493799803, -0.946358707692019, -0.6235131847862344, 24548000000, 
-1.0732715623909954, -0.9472652352774834, -0.6235337049098278, 24650000000, 
-1.0720394224443581, -0.9481514869475901, -0.6235533260562895, 24752000000, 
-1.0712323493599265, -0.9487320153950345, -0.6235658736235263, 24820000000, 
-1.0700399767598077, -0.9495897241259049, -0.6235839448534061, 24922000000, 
-1.0688638830544255, -0.9504357453583497, -0.6236011773036627, 25024000000, 
-1.0677020754082123, -0.9512715245136192, -0.6236174890567714, 25126000000, 
-1.066589337702961, -0.9520720335617305, -0.6236326992874635, 25228000000, 
-1.0655082776414175, -0.9528497746225215, -0.6236472695752551, 25330000000, 
-1.0644137082448621, -0.9536372546796769, -0.623661273312447, 25432000000, 
-1.0633232501890733, -0.9544218029240135, -0.6236745834577637, 25534000000, 
-1.062247479681591, -0.9551958058290164, -0.6236873243540305, 25636000000, 
-1.0611799053656314, -0.9559639304999827, -0.623699468243354, 25738000000, 
-1.0601294728090664, -0.9567197407379662, -0.6237110810848493, 25840000000, 
-1.0591059653167, -0.9574561963829413, -0.6237221151287801, 25942000000, 
-1.05810668824681, -0.9581752333946878, -0.6237324968656897, 26044000000, 
-1.0571282979515428, -0.9588792568380454, -0.6237425052131106, 26146000000, 
-1.056169827665699, -0.9595689601654135, -0.6237520207967678, 26248000000, 
-1.055539957516956, -0.9600222143671726, -0.6237581684470832, 26316000000, 
-1.0546062330983028, -0.9606941326133474, -0.6237668398796807, 26418000000, 
-1.0536846448795671, -0.961357328725347, -0.6237751292989575, 26520000000, 
-1.0527761191394989, -0.9620111363031457, -0.6237829692006055, 26622000000, 
-1.0519079403142337, -0.9626359194718427, -0.6237901958353399, 26724000000, 
-1.0510659601998784, -0.9632418576787698, -0.6237972046315956, 26826000000, 
-1.0502145928687436, -0.9638545593641256, -0.6238040052186729, 26928000000, 
-1.049366549267655, -0.9644648784897215, -0.6238104211175525, 27030000000, 
-1.048529343004941, -0.9650674078322984, -0.6238166239225507, 27132000000, 
-1.0476975782607085, -0.9656660261150806, -0.6238225426344838, 27234000000, 
-1.046878374099377, -0.9662556129372046, -0.6238281274044608, 27336000000, 
-1.0460796437041668, -0.9668304706699334, -0.6238334747596515, 27438000000, 
-1.0455577575528223, -0.9672060849154461, -0.6238368386342203, 27506000000, 
-1.044788998746444, -0.9677593811260682, -0.6238416993915425, 27608000000, 
-1.0440364297225826, -0.9683010298096844, -0.623846271689486, 27710000000, 
-1.0432980464582857, -0.9688324758461669, -0.623850654803221, 27812000000, 
-1.0425916438251428, -0.9693409075630535, -0.6238546766651225, 27914000000, 
-1.0419045392414783, -0.9698354531149967, -0.6238586302668183, 28016000000, 
-1.0412071218757333, -0.9703374263946952, -0.6238624084899481, 28118000000, 
-1.040509747098228, -0.9708393726816488, -0.6238660065342623, 28220000000, 
-1.0398198003278554, -0.9713359766217197, -0.6238694573230441, 28322000000, 
-1.0391345408054604, -0.9718292098118538, -0.6238727431875879, 28424000000, 
-1.038460611789728, -0.9723142915695101, -0.6238758204916675, 28526000000, 
-1.0378048298495584, -0.9727863161994948, -0.6238787744306261, 28628000000, 
-1.0373770909359843, -0.9730941949990873, -0.6238806471960733, 28696000000, 
-1.0367475823189038, -0.973547311226523, -0.6238833242297774, 28798000000, 
-1.0361314293704367, -0.9739908166053703, -0.6238858736095617, 28900000000, 
-1.0355266536405985, -0.974426135391265, -0.6238882700997903, 29002000000, 
-1.034947346650267, -0.9748431213048602, -0.6238905641313278, 29104000000, 
-1.0343832801180333, -0.9752491420834852, -0.6238927536367691, 29206000000, 
-1.0338104452998824, -0.9756614733765461, -0.6238948327004952, 29308000000, 
-1.0332376346771748, -0.9760737904115805, -0.6238968072692185, 29410000000, 
-1.0326710785355109, -0.9764816069373239, -0.6238986934148586, 29512000000, 
-1.0321087778601659, -0.9768863618520803, -0.6239004727619084, 29614000000, 
-1.0315560386262383, -0.9772842361694766, -0.6239021385052574, 29716000000, 
-1.0310182148269393, -0.9776713754381927, -0.6239037693878033, 29818000000, 
-1.0304941090391189, -0.9780486410866455, -0.6239053251965229, 29920000000, 
-1.0299816007551128, -0.9784175596114254, -0.6239067756456096, 30022000000, 
-1.0294795355020268, -0.9787789625607963, -0.6239081020399425, 30124000000, 
-1.0291494973423319, -0.9790165353786722, -0.6239090021885125, 30192000000, 
-1.0286599683009998, -0.9793689150543217, -0.6239102756851747, 30294000000, 
-1.0281763401239135, -0.9797170494903317, -0.6239114360135313, 30396000000, 
-1.0276991713594505, -0.9800605324083088, -0.6239125560938399, 30498000000, 
-1.0272431152506691, -0.9803888243951322, -0.6239136033482132, 30600000000, 
-1.0268009130428732, -0.9807071381580711, -0.6239145915120112, 30702000000, 
-1.0263538905521863, -0.9810289219820627, -0.623915515470346, 30804000000, 
-1.0259088739350797, -0.9813492645926893, -0.6239164340521245, 30906000000, 
-1.0254696364403872, -0.9816654476220739, -0.6239172830147893, 31008000000, 
-1.0250333304382104, -0.9819795210843018, -0.6239180815138582, 31110000000, 
-1.0246035714572035, -0.9822888821757977, -0.6239188764317327, 31212000000, 
-1.0241844563685898, -0.9825905819677573, -0.6239196137051218, 31314000000, 
-1.0239106114296863, -0.9827877098473343, -0.6239201351205756, 31382000000, 
-1.0235071233824216, -0.983078161411474, -0.6239207984355711, 31484000000, 
-1.0231120118837842, -0.9833625836109797, -0.6239214202907349, 31586000000, 
-1.0227244395539201, -0.9836415791359604, -0.6239220291133954, 31688000000, 
-1.0223536996499478, -0.983908458108938, -0.6239225856308106, 31790000000, 
-1.0219911746022716, -0.9841694237484049, -0.623923047465913, 31892000000, 
-1.0216251647061398, -0.9844328975348485, -0.6239235460163235, 31994000000, 
-1.0212592214359928, -0.9846963244330943, -0.6239240007175494, 32096000000, 
-1.0208971154249231, -0.9849569890066171, -0.6239244211709242, 32198000000, 
-1.0205378647237247, -0.9852155983138703, -0.6239248371940609, 32300000000, 
-1.020184740488027, -0.985469797686052, -0.6239252454033488, 32402000000, 
-1.019840725140997, -0.9857174401393459, -0.6239256087911829, 32504000000, 
-1.0195053265881904, -0.9859588803082032, -0.6239259706148041, 32606000000, 
-1.0191773318520352, -0.9861949906770806, -0.6239262854446264, 32708000000, 
-1.0189623851392178, -0.9863497223112205, -0.6239265238405245, 32776000000, 
-1.0186447895445565, -0.9865783471353244, -0.6239268084764641, 32878000000, 
-1.0183316059202148, -0.9868037960752026, -0.6239270805770316, 32980000000, 
-1.0180222946628168, -0.9870264574776332, -0.6239273193524215, 33082000000, 
-1.0177209667164517, -0.9872433724544554, -0.6239275266308362, 33184000000, 
-1.017433349849571, -0.987450418683344, -0.6239277392168491, 33286000000, 
-1.0171420975565961, -0.9876600787186621, -0.623927955001841, 33388000000, 
-1.016851942066118, -0.9878689510734938, -0.623928123041833, 33490000000, 
-1.016566561436978, -0.9880743860921138, -0.6239282930123378, 33592000000, 
-1.016283819462797, -0.9882779217372654, -0.623928440720352, 33694000000, 
-1.0160047756640818, -0.9884787952983451, -0.6239285836350539, 33796000000, 
-1.0157323877925437, -0.9886748774607332, -0.623928727701471, 33898000000, 
-1.0154662824523901, -0.98886643724345, -0.6239288604427818, 34000000000, 
-1.0152055103639064, -0.9890541578453486, -0.6239289857626559, 34102000000, 
-1.0149499284641674, -0.9892381422466642, -0.6239290970127487, 34204000000, 
-1.0147820548928073, -0.9893589884759159, -0.6239291622940519, 34272000000, 
-1.014533463698147, -0.9895379405960276, -0.6239292497070318, 34374000000, 
-1.0142882910226954, -0.9897144318936705, -0.6239293207175892, 34476000000, 
-1.0140466342334784, -0.9898883923275971, -0.6239293799515033, 34578000000, 
-1.013815796498573, -0.9900545643279606, -0.6239294270478847, 34680000000, 
