x, y, theta, stamp, 
-1.9999623200257894, -0.5000010878354184, 2.735594487934071e-07, 2516000000, 
-1.9999613719129479, -0.5000010876929293, 2.7843470430205587e-07, 2550000000, 
-1.999959926458486, -0.5000010871434377, 2.8679581158427364e-07, 2584000000, 
-1.9999579869033983, -0.5000010862130875, 2.989477820512982e-07, 2618000000, 
-1.9912770877046415, -0.5000166791262272, -0.005985133235569846, 2652000000, 
-1.9686816497508244, -0.500676787381558, -0.04701679078212606, 2754000000, 
-1.9462244256063659, -0.5021764891656815, -0.08625730696943827, 2856000000, 
-1.9238392313465116, -0.5045262600378851, -0.1240633246976364, 2958000000, 
-1.9044517820677975, -0.5072777921716479, -0.1601411837357724, 3060000000, 
-1.8907647029397538, -0.5097069078422974, -0.1932533633262702, 3162000000, 
-1.8794832846261458, -0.5120070100437317, -0.20851447316824923, 3264000000, 
-1.86850860475812, -0.5143959963602884, -0.22088606162758084, 3366000000, 
-1.8576288503383616, -0.5168975629194896, -0.2313227400681504, 3468000000, 
-1.8497826886238617, -0.5187729120385717, -0.23990762720203754, 3536000000, 
-1.832106367000383, -0.523242056002385, -0.2555328522510892, 3672000000, 
-1.8178599873748742, -0.5270652029883716, -0.27036316858637355, 3774000000, 
-1.8083608162627536, -0.5297626234216527, -0.2823427517503597, 3842000000, 
-1.7943619804989839, -0.5339589878911573, -0.3005625284024886, 3944000000, 
-1.7809418757085216, -0.538238794982252, -0.3168132999137275, 4046000000, 
-1.7684997703800178, -0.542411087560417, -0.3316345828270862, 4148000000, 
-1.7570620713841973, -0.5464191190163796, -0.3440783812233634, 4250000000, 
-1.746000559592634, -0.5504488070282912, -0.35457391795475235, 4352000000, 
-1.735142120898596, -0.5545289520821602, -0.3643145370276982, 4454000000, 
-1.7243111987157882, -0.5587164387350474, -0.37375787457767495, 4556000000, 
-1.713365881782493, -0.5630669723928745, -0.3832328963371803, 4658000000, 
-1.7060264019263098, -0.5660521727974313, -0.3896415244373361, 4726000000, 
-1.6950598065119324, -0.5706195192586319, -0.39975414965774825, 4828000000, 
-1.6842758997219651, -0.5752398767596837, -0.40991174145208825, 4930000000, 
-1.6737457056281666, -0.5798759202180518, -0.41963512741242176, 5032000000, 
-1.663501926691663, -0.5845018695903129, -0.4287972749918242, 5134000000, 
-1.6536010336765765, -0.5890785719426912, -0.4369943908158429, 5236000000, 
-1.6471352622910715, -0.5921195377930908, -0.4422025560876672, 5304000000, 
-1.637598736292804, -0.5966746223975589, -0.4491084217289588, 5406000000, 
-1.6282109059712613, -0.6012356019667497, -0.4554903914321833, 5508000000, 
-1.6189419439591812, -0.6058105080318349, -0.46157988447099185, 5610000000, 
-1.6097618229308066, -0.6104109361783621, -0.46759759545892704, 5712000000, 
-1.6006702338610486, -0.6150359646950785, -0.47363308485988004, 5814000000, 
-1.591731645051499, -0.619650806558037, -0.4795949294915361, 5916000000, 
-1.5829940013420993, -0.6242279793448434, -0.485432111422641, 6018000000, 
-1.5744238832151396, -0.6287802789064331, -0.49102719261506694, 6120000000, 
-1.5660276199431646, -0.6332987699945754, -0.4962657180635523, 6222000000, 
-1.557792668212436, -0.637783990090609, -0.501109542018446, 6324000000, 
-1.5496926679782397, -0.6422445667506126, -0.5055771700647603, 6426000000, 
-1.5417183016036355, -0.6466807000745622, -0.5097317943124111, 6528000000, 
-1.5338676233087938, -0.6510895851511913, -0.5136626138947279, 6630000000, 
-1.528698119555217, -0.6540147187594745, -0.516207225910283, 6698000000, 
-1.5210367783646623, -0.6583816124141493, -0.5199146142903692, 6800000000, 
-1.513491322618038, -0.662719162209708, -0.5235475450642898, 6902000000, 
-1.5060649592443467, -0.6670237310449945, -0.5270945932951498, 7004000000, 
-1.4987645284103066, -0.6712892370034376, -0.5304931678242921, 7106000000, 
-1.491580092656453, -0.6755193199544174, -0.5337561524176501, 7208000000, 
-1.4845240948522347, -0.6797040153921305, -0.5368390595106166, 7310000000, 
-1.479884482698375, -0.6824713502979555, -0.5388132093567713, 7378000000, 
-1.4730138299022708, -0.6865914154259768, -0.5415611193193233, 7480000000, 
-1.4662455901675018, -0.6906746714291631, -0.544148776369629, 7582000000, 
-1.4595802053343936, -0.6947187988249759, -0.546600252665181, 7684000000, 
-1.4530170294756088, -0.6987223530081647, -0.5489173706806867, 7786000000, 
-1.446545848511017, -0.7026902895808821, -0.5511742628108983, 7888000000, 
-1.440179043781054, -0.7066136831328291, -0.5533636656903836, 7990000000, 
-1.4339099106515056, -0.7104955106571234, -0.5554730981030248, 8092000000, 
-1.4277358303934855, -0.7143361404225639, -0.5575020696529316, 8194000000, 
-1.4216582691466062, -0.7181334971904393, -0.5594388383907322, 8296000000, 
-1.4156758196932508, -0.7218871220204528, -0.5612678604892165, 8398000000, 
-1.4097835094943043, -0.7255988010370354, -0.562990698184878, 8500000000, 
-1.40590366701269, -0.7280503604817928, -0.5640961593735148, 8568000000, 
-1.400155172998089, -0.7316934384743182, -0.5656583121466847, 8670000000, 
-1.3944907389667363, -0.7352953075368366, -0.5671404911323349, 8772000000, 
-1.388909675562779, -0.738855581172866, -0.5685580821073806, 8874000000, 
-1.3834137991443933, -0.7423722197039573, -0.5699112828946599, 8976000000, 
-1.377992639897068, -0.7458513647604498, -0.571223676479219, 9078000000, 
-1.3726559637246152, -0.7492859583284232, -0.5724871956945718, 9180000000, 
-1.367398783007724, -0.7526785759223178, -0.573695680340111, 9282000000, 
-1.3622186744755482, -0.7560301415032263, -0.5748482717606995, 9384000000, 
-1.3571157685009774, -0.759339897272268, -0.5759422696317379, 9486000000, 
-1.3520888472485333, -0.7626079763383269, -0.5769754810735362, 9588000000, 
-1.34713448102948, -0.76583599411042, -0.5779525415899752, 9690000000, 
-1.3422510457130763, -0.7690243789303844, -0.5788793778241884, 9792000000, 
-1.3374379027713286, -0.772173116504953, -0.5797617892771231, 9894000000, 
-1.3326941868890394, -0.7752822498125638, -0.5806056903526868, 9996000000, 
-1.3295698776767253, -0.7773331101558446, -0.5811532906846493, 10064000000, 
-1.3249402995380488, -0.7803764375892741, -0.5819408334660758, 10166000000, 
-1.3203779443331864, -0.7833806491896645, -0.5826958405384923, 10268000000, 
-1.3158813568332626, -0.7863462937824683, -0.5834173458699543, 10370000000, 
-1.3114399441342925, -0.789280071218642, -0.5841072709353171, 10472000000, 
-1.307067389636514, -0.792172593413987, -0.5847556083770712, 10574000000, 
-1.3027612951962724, -0.7950250866783642, -0.5853750471961937, 10676000000, 
-1.2985177342333785, -0.7978398495849116, -0.5859633178819658, 10778000000, 
-1.2943364769021601, -0.8006167194297106, -0.5865213975293376, 10880000000, 
-1.290216498168519, -0.8033561400619165, -0.5870539768098436, 10982000000, 
-1.2861542232724033, -0.8060602586195202, -0.587563690955084, 11084000000, 
-1.2821485474543466, -0.8087295667190492, -0.5880506343892591, 11186000000, 
-1.2781992183462443, -0.811364047787467, -0.5885164004900695, 11288000000, 
-1.2743052197547589, -0.813964202261732, -0.588961487390704, 11390000000, 
-1.2704661289962702, -0.8165300792710787, -0.5893856663126325, 11492000000, 
-1.2666819990522697, -0.8190615132143846, -0.5897893298500746, 11594000000, 
-1.2641894224262895, -0.8207301355003759, -0.5900500883704993, 11662000000, 
-1.260495196511734, -0.8232048667634074, -0.5904212739559885, 11764000000, 
-1.2568537103924828, -0.8256461842793084, -0.590774261161578, 11866000000, 
-1.2532640182151502, -0.8280545675553855, -0.5911103823555287, 11968000000, 
-1.2497173813594231, -0.8304357591608309, -0.5914321766478262, 12070000000, 
-1.2462245044711866, -0.8327824590936914, -0.5917364830429881, 12172000000, 
-1.2427836446806002, -0.8350957026172495, -0.5920291159582586, 12274000000, 
-1.239391926216488, -0.8373773186062146, -0.5923088243336295, 12376000000, 
-1.236049313981488, -0.8396272293510136, -0.5925751923457272, 12478000000, 
-1.2327552911126265, -0.8418456726889434, -0.5928293618879816, 12580000000, 
-1.2295070255539737, -0.8440344780652285, -0.5930716696178876, 12682000000, 
-1.2263034680402112, -0.8461942592077698, -0.5933019973349944, 12784000000, 
-1.223144388422516, -0.8483250905987249, -0.5935211401521656, 12886000000, 
-1.220029145464314, -0.8504273206750274, -0.5937298359282974, 12988000000, 
-1.2179764490173677, -0.8518130300644506, -0.5938648452220756, 13056000000, 
-1.2149335551671245, -0.8538679237259607, -0.5940573329844668, 13158000000, 
-1.2119338266972657, -0.855894481481428, -0.5942410753377786, 13260000000, 
-1.2089766321006774, -0.8578930820602417, -0.5944165842021741, 13362000000, 
-1.2060549593763505, -0.8598684045186633, -0.594584684783176, 13464000000, 
-1.203177723855178, -0.8618143737913492, -0.5947434547432111, 13566000000, 
-1.200343200641131, -0.8637321143818596, -0.5948958360632278, 13668000000, 
-1.1975488891510175, -0.8656232444726473, -0.5950411576122017, 13770000000, 
-1.1947947271707469, -0.8674877631705445, -0.595179230136338, 13872000000, 
-1.1920801147884912, -0.86932604666848, -0.5953108888457342, 13974000000, 
-1.189402845399864, -0.8711395481241048, -0.59543647326634, 14076000000, 
-1.1867621158576727, -0.8729287765062499, -0.5955559322361408, 14178000000, 
-1.1841579052455928, -0.8746936957350487, -0.5956698927587546, 14280000000, 
-1.1815896979394256, -0.8764346321594415, -0.5957785052803669, 14382000000, 
-1.1790572020422687, -0.8781517537545329, -0.5958820863044773, 14484000000, 
-1.1765603771848006, -0.8798450591097188, -0.5959809222751499, 14586000000, 
-1.1749154946050033, -0.880960786842246, -0.596044716124423, 14654000000, 
-1.1724771701645111, -0.8826149873086057, -0.5961359925161612, 14756000000, 
-1.1700732144896646, -0.8842461816363053, -0.5962230347172633, 14858000000, 
-1.1677030237679844, -0.8858547547686042, -0.5963059519846688, 14960000000, 
-1.1653665950134724, -0.8874406981430087, -0.5963841320766506, 15062000000, 
-1.1630595615169028, -0.8890069440807374, -0.5964594253219238, 15164000000, 
-1.1607865403578812, -0.8905503430138196, -0.596531262553855, 15266000000, 
-1.1585456222502315, -0.8920721772825096, -0.5965997183327463, 15368000000, 
-1.1563358607796737, -0.8935730645671998, -0.5966650969243898, 15470000000, 
-1.1541573690991267, -0.8950529168144007, -0.5967275477040644, 15572000000, 
-1.1520097590784295, -0.8965119874549412, -0.5967869209863416, 15674000000, 
-1.149891967412467, -0.8979509748260173, -0.5968435040268113, 15776000000, 
-1.1478035191986808, -0.8993701914991666, -0.5968973491221602, 15878000000, 
-1.146427413529819, -0.9003054236281443, -0.5969321172570805, 15946000000, 
-1.1443871741253007, -0.9016921444840756, -0.5969817432652877, 16048000000, 
-1.1423752808608671, -0.9030597346596075, -0.597029010169039, 16150000000, 
-1.1403914046262407, -0.9044084169583669, -0.597074176271562, 16252000000, 
-1.1384310699813176, -0.90574121847171, -0.5971173365907948, 16354000000, 
-1.1365003542780268, -0.9070540047483147, -0.5971581785855249, 16456000000, 
-1.1345982046781782, -0.908347482737275, -0.5971973788647654, 16558000000, 
-1.1327230316948214, -0.9096227134330718, -0.5972348186561385, 16660000000, 
-1.1308747889180306, -0.9108797313645015, -0.5972703692434261, 16762000000, 
-1.129657453288975, -0.9117077148894072, -0.597293421786305, 16830000000, 
-1.1278525814338944, -0.9129353879069586, -0.5973263096524193, 16932000000, 
-1.1260720216085696, -0.9141466090459671, -0.5973576017115524, 17034000000, 
-1.124895918790622, -0.9149466904700264, -0.5973773653150148, 17102000000, 
-1.123160150832842, -0.9161275687046482, -0.5974060651784218, 17204000000, 
-1.1214414394074335, -0.9172969137186191, -0.5974338151002627, 17306000000, 
-1.1197484385630219, -0.9184488321938747, -0.5974600015790119, 17408000000, 
-1.1180813800364404, -0.9195831592043009, -0.5974848377737476, 17510000000, 
-1.1164350667580498, -0.9207034316607468, -0.5975088053708685, 17612000000, 
-1.1153508233112441, -0.9214412642016471, -0.5975245447517796, 17680000000, 
-1.1137443361370523, -0.9225345263571318, -0.5975464818088724, 17782000000, 
-1.112160763154349, -0.923612244535829, -0.5975674104461095, 17884000000, 
-1.1105986260723255, -0.924675421929013, -0.5975874366010268, 17986000000, 
-1.1090551313443409, -0.9257259560219971, -0.597606554794863, 18088000000, 
-1.1075347981293457, -0.926760767128252, -0.5976243904017583, 18190000000, 
-1.1060365369422644, -0.9277805941108022, -0.597641625035826, 18292000000, 
-1.1045594004275263, -0.9287860766512317, -0.5976581014490419, 18394000000, 
-1.1031034491600424, -0.929777173995886, -0.5976738093566045, 18496000000, 
-1.1016684199958167, -0.9307540619731501, -0.5976888615864673, 18598000000, 
-1.100722754093958, -0.931397836300393, -0.5976986160473777, 18666000000, 
-1.0993203433764185, -0.9323525703030013, -0.5977125419891204, 18768000000, 
-1.0979371588035052, -0.9332942417785363, -0.5977257856357565, 18870000000, 
-1.09657306564911, -0.93422294164036, -0.5977383410796432, 18972000000, 
-1.0952247636624974, -0.9351409138971208, -0.5977503326863406, 19074000000, 
-1.0938967370072585, -0.936045105818546, -0.597761589707079, 19176000000, 
-1.092588500570095, -0.936935843990199, -0.5977723771606676, 19278000000, 
-1.0912988667116201, -0.9378139381584262, -0.5977826593826591, 19380000000, 
-1.0904494167750942, -0.9383923254039522, -0.5977894059190273, 19448000000, 
-1.0891907283196656, -0.9392493812738257, -0.5977989407462521, 19550000000, 
-1.0879496970567675, -0.9400944265413224, -0.597808055414706, 19652000000, 
-1.0867252804143914, -0.94092817666863, -0.5978168221811919, 19754000000, 
-1.0859164703490054, -0.941478935744886, -0.5978223464765089, 19822000000, 
-1.0847180538535919, -0.9422950035389169, -0.5978304121090663, 19924000000, 
-1.0835372436605006, -0.9430991008774098, -0.597838048487495, 20026000000, 
-1.0823733000977347, -0.9438917221884865, -0.5978453317127552, 20128000000, 
-1.0812267169307563, -0.9446725326959805, -0.5978521631532907, 20230000000, 
-1.0804703885733309, -0.9451875914209826, -0.5978566284438139, 20298000000, 
-1.079720051301172, -0.9456985755073272, -0.5978609159093731, 20366000000, 
-1.0786105666933437, -0.9464541485725978, -0.5978670433679001, 20468000000, 
-1.0775162407236463, -0.9471994056722559, -0.5978729189965103, 20570000000, 
-1.0764393774154888, -0.9479327818560503, -0.5978785292378799, 20672000000, 
-1.0753746080743156, -0.9486579300702598, -0.5978838720808027, 20774000000, 
-1.0743241716524399, -0.9493733243761971, -0.5978890060324937, 20876000000, 
-1.073288828845855, -0.9500784479826059, -0.5978938724304237, 20978000000, 
-1.0722675434503552, -0.9507740046218043, -0.5978985122524235, 21080000000, 
-1.0715945639006186, -0.9512323466621463, -0.5979014922350836, 21148000000, 
-1.0705971923192108, -0.9519116270025839, -0.5979057513905636, 21250000000, 
-1.0696142464190788, -0.9525810910888225, -0.5979097747325979, 21352000000, 
-1.0686450699509553, -0.9532411788351988, -0.5979136083937073, 21454000000, 
-1.0676897407706707, -0.9538918408398372, -0.5979172482510199, 21556000000, 
-1.0667463636122376, -0.9545343719326621, -0.597920750141557, 21658000000, 
-1.0658167961862863, -0.9551674972454759, -0.5979241309128001, 21760000000, 
-1.0649001705085253, -0.9557918113033197, -0.5979273021514937, 21862000000, 
-1.0639961664487625, -0.9564075351274958, -0.5979303391231109, 21964000000, 
-1.0631049176258343, -0.9570145754944815, -0.5979332415911716, 22066000000, 
-1.062226229714273, -0.9576130641295382, -0.5979359460271461, 22168000000, 
-1.0613597722662598, -0.9582032252966743, -0.5979385592618064, 22270000000, 
-1.0605053696008504, -0.9587851788478594, -0.5979410640623626, 22372000000, 
-1.059662811472596, -0.9593590676250657, -0.5979433943658163, 22474000000, 
-1.0588319676836875, -0.95992498045396, -0.5979456226010834, 22576000000, 
-1.0582845024382375, -0.9602978770120714, -0.5979470886123257, 22644000000, 
-1.0574727717463674, -0.9608507774403375, -0.5979491423799823, 22746000000, 
-1.0566723777659377, -0.9613959578728223, -0.5979511221780982, 22848000000, 
-1.0558831660790666, -0.9619335192439857, -0.5979530219596604, 22950000000, 
-1.055103227274249, -0.9624647703042072, -0.5979547783778147, 23052000000, 
-1.0543350741471575, -0.9629879952737661, -0.5979564782851972, 23154000000, 
-1.0535782493097845, -0.963503507138017, -0.597958131941748, 23256000000, 
-1.0528321078171257, -0.9640117416488729, -0.5979596329855253, 23358000000, 
-1.0520966908635263, -0.9645126747529875, -0.5979611005027422, 23460000000, 
-1.0513717509004101, -0.965006470586274, -0.5979625136367963, 23562000000, 
-1.0506567577746537, -0.965493493379261, -0.5979637975700408, 23664000000, 
-1.0499514755914716, -0.9659739035782334, -0.5979650632393023, 23766000000, 
-1.0492558344071858, -0.9664477470568071, -0.5979662411421243, 23868000000, 
-1.0485697907383773, -0.9669150551001964, -0.5979673505784093, 23970000000, 
-1.0478931727865015, -0.9673759447375387, -0.5979684657213635, 24072000000, 
-1.0474473427052016, -0.967679628256986, -0.5979691189821896, 24140000000, 
-1.0467865068255795, -0.968129767358903, -0.5979701262273358, 24242000000, 
-1.0461350137920233, -0.968573543146182, -0.5979711027777782, 24344000000, 
-1.0454925950992053, -0.9690111404339637, -0.597971984988656, 24446000000, 
-1.0448593583525039, -0.969442481307271, -0.5979727871343444, 24548000000, 
-1.0442341388428649, -0.9698683637746022, -0.597973576019271, 24650000000, 
-1.0436180668780213, -0.9702880171838568, -0.5979743623251593, 24752000000, 
-1.043010618482644, -0.9707017938002809, -0.5979750889987911, 24854000000, 
-1.0424116345480015, -0.9711098087786523, -0.5979757644071506, 24956000000, 
-1.041821025179319, -0.9715121174047274, -0.597976438892985, 25058000000, 
-1.04123875414125, -0.9719087464862254, -0.5979770540783518, 25160000000, 
-1.0406645865279878, -0.9722998580876333, -0.5979776088097439, 25262000000, 
-1.0400983055553203, -0.9726855963449526, -0.5979781719765925, 25364000000, 
-1.0395399370316905, -0.9730659471033115, -0.5979786993038907, 25466000000, 
-1.038989328160477, -0.9734410110130821, -0.5979791625319064, 25568000000, 
-1.0386264634798623, -0.9736881876406731, -0.5979795015107272, 25636000000, 
-1.0380885215576354, -0.9740546236784888, -0.5979799502693309, 25738000000, 
-1.0375581224459012, -0.9744159229025858, -0.5979803670746191, 25840000000, 
-1.0370350651560223, -0.9747722201461083, -0.5979807879090194, 25942000000, 
-1.0365195243232956, -0.9751233983573563, -0.5979811513104022, 26044000000, 
-1.0360104749137486, -0.9754701548526334, -0.5979814751590949, 26146000000, 
-1.0355088872354679, -0.9758118286798074, -0.5979818340066746, 26248000000, 
-1.035014434404907, -0.9761486430783428, -0.5979821463688784, 26350000000, 
-1.034526808402767, -0.9764808070147111, -0.5979824210080434, 26452000000, 
-1.0340460275853927, -0.9768083081759015, -0.5979827325145547, 26554000000, 
-1.0335720618408095, -0.9771311674350169, -0.5979829835840392, 26656000000, 
-1.0331046019907608, -0.9774495951741744, -0.5979832496262453, 26758000000, 
-1.0326436391621567, -0.9777635973123954, -0.5979834742715241, 26860000000, 
-1.0321890387573311, -0.9780732655833618, -0.5979836872841904, 26962000000, 
-1.031889494892194, -0.9782773112720063, -0.5979838574149267, 27030000000, 
-1.031445417850082, -0.9785798118434063, -0.5979840272655645, 27132000000, 
-1.0310074534488183, -0.978878148618263, -0.5979842048755675, 27234000000, 
-1.030575619194713, -0.979172308770093, -0.5979843871804016, 27336000000, 
-1.0301500281778948, -0.979462216814541, -0.5979845180176905, 27438000000, 
-1.0297297432086074, -0.9797485105019779, -0.597984641010992, 27540000000, 
-1.0293156095981517, -0.9800306141076981, -0.5979847667625555, 27642000000, 
-1.0289073969068443, -0.9803086845873126, -0.5979849028088698, 27744000000, 
-1.028504857818727, -0.9805828902248295, -0.5979850244727484, 27846000000, 
-1.0281079063611378, -0.9808532895899605, -0.5979851388852161, 27948000000, 
